T_set(K) T_real(K) X1(V) Y1(V) R1(V) Theta1(deg) X2(V) Y2(V) R2(V) Theta2(deg)
2.11 2.08 0.00208284 -3.2902e-05 0.00208308 -0.9 0.0423872 0.0 0.0423872 0.0 
2.89 2.97 0.00207998 -3.2902e-05 0.00208046 -0.9 0.0423529 0.0 0.0423529 0.0 
3.75 3.9 0.00207807 -3.2902e-05 0.00207831 -0.906 0.0423224 0.0 0.0423224 0.0 
4.68 5.07 0.00207664 -3.24252e-05 0.00207688 -0.894 0.0422957 0.0 0.0422957 0.0 
5.58 6.03 0.00207521 -3.2902e-05 0.00207569 -0.9 0.0422785 0.0 0.0422785 0.0 
6.19 6.46 0.00207473 -3.21867e-05 0.00207497 -0.888 0.0422709 0.0 0.0422709 0.0 
6.94 7.13 0.00207402 -3.26636e-05 0.00207426 -0.9 0.0422652 0.0 0.0422652 0.0 
8.26 8.89 0.00207378 -3.26636e-05 0.00207402 -0.9 0.0422518 0.0 0.0422518 0.0 
9.16 9.81 0.00207354 -3.26636e-05 0.00207378 -0.9 0.0422499 0.0 0.0422499 0.0 
10.06 10.74 0.00207259 -3.2902e-05 0.00207283 -0.906 0.0422518 0.0 0.0422518 0.0 
10.92 11.34 0.00207283 -3.2902e-05 0.00207306 -0.906 0.0422556 0.0 0.0422556 0.0 
11.86 12.3 0.00207092 -3.2902e-05 0.00207116 -0.906 0.0422652 0.0 0.0422652 0.0 
12.77 13.17 0.00207116 -3.26636e-05 0.0020714 -0.9 0.0422785 0.0 0.0422785 0.0 
13.66 13.98 0.00207163 -3.2902e-05 0.00207187 -0.906 0.0422919 0.0 0.0422919 0.0 
14.56 15.47 0.0020714 -3.26636e-05 0.00207187 -0.9 0.0423186 0.0 0.0423186 0.0 
15.44 15.91 0.00207211 -3.2902e-05 0.00207235 -0.906 0.0423281 0.0 0.0423281 0.0 
16.34 16.49 0.00207211 -3.21867e-05 0.00207235 -0.888 0.0423396 0.0 0.0423396 0.0 
17.23 17.11 0.00207283 -3.26636e-05 0.00207306 -0.9 0.0423548 0.0 0.0423548 0.0 
18.13 17.68 0.00207259 -3.26636e-05 0.00207283 -0.9 0.0423739 0.0 0.0423739 0.0 
19.04 18.6 0.00207354 -3.26636e-05 0.00207402 -0.9 0.0423949 0.0 0.0423949 0.0 
19.93 19.31 0.00207402 -3.26636e-05 0.00207449 -0.9 0.0424159 0.0 0.0424159 0.0 
20.84 20.02 0.00207426 -3.21867e-05 0.00207449 -0.888 0.0424368 0.0 0.0424368 0.0 
21.72 20.86 0.00207497 -3.2902e-05 0.00207521 -0.9 0.0424635 0.0 0.0424635 0.0 
22.63 22.6 0.00207664 -3.21867e-05 0.00207688 -0.888 0.0425417 0.0 0.0425417 0.0 
23.44 23.24 0.00207688 -3.26636e-05 0.00207712 -0.894 0.0425589 0.0 0.0425589 0.0 
24.41 23.9 0.00207688 -3.24252e-05 0.00207736 -0.894 0.042578 0.0 0.042578 0.0 
25.31 25.28 0.00207879 -3.24252e-05 0.00207902 -0.894 0.0426466 0.0 0.0426466 0.0 
26.21 25.64 0.00207831 -3.21867e-05 0.00207831 -0.888 0.0426657 0.0 0.0426657 0.0 
27.12 26.34 0.00207902 -3.26636e-05 0.0020795 -0.894 0.0426867 0.0 0.0426867 0.0 
27.8 26.99 0.00207902 -3.2902e-05 0.0020795 -0.9 0.0427058 -1.90736e-06 0.0427058 0.0 
28.91 27.37 0.0020795 -3.21867e-05 0.00207974 -0.888 0.0427325 0.0 0.0427325 0.0 
29.79 29.08 0.00208141 -3.2902e-05 0.00208165 -0.9 0.0428259 -1.90736e-06 0.0428259 0.0 
29.75 29.22 0.00208141 -3.2902e-05 0.00208165 -0.9 0.0428298 -1.90736e-06 0.0428298 0.0 
31.58 30.26 0.00208189 -3.21867e-05 0.00208212 -0.888 0.042866 0.0 0.042866 0.0 
32.47 30.63 0.00208236 -3.2902e-05 0.00208284 -0.9 0.0428889 -1.90736e-06 0.0428889 0.0 
32.89 30.92 0.00208284 -3.26636e-05 0.00208308 -0.894 0.0429022 0.0 0.0429022 0.0 
34.27 33.32 0.00208451 -3.24252e-05 0.00208475 -0.888 0.0430205 0.0 0.0430205 0.0 
35.15 34.76 0.0020857 -3.21867e-05 0.00208594 -0.876 0.0431139 -1.90736e-06 0.0431139 0.0 
36.06 34.76 0.00208642 -3.24252e-05 0.00208665 -0.888 0.0431368 -1.90736e-06 0.0431368 0.0 
36.41 35.26 0.00208618 -3.2902e-05 0.00208642 -0.9 0.0431483 -1.90736e-06 0.0431483 0.0 
37.84 35.92 0.00208689 -3.24252e-05 0.00208737 -0.888 0.0431769 -1.90736e-06 0.0431769 0.0 
38.74 36.43 0.00208713 -3.26636e-05 0.00208737 -0.894 0.0432074 -1.90736e-06 0.0432074 0.0 
39.65 36.77 0.00208761 -3.24252e-05 0.00208785 -0.888 0.0432341 -1.90736e-06 0.0432341 0.0 
40.53 37.64 0.00208785 -3.26636e-05 0.00208808 -0.894 0.0432627 -1.90736e-06 0.0432627 0.0 
41.44 38.01 0.00208761 -3.24252e-05 0.00208785 -0.888 0.0432932 -1.90736e-06 0.0432932 0.0 
42.32 38.73 0.00208785 -3.21867e-05 0.00208808 -0.882 0.0433238 -1.90736e-06 0.0433238 0.0 
43.23 38.99 0.00208856 -3.2902e-05 0.00208904 -0.894 0.0433581 -1.90736e-06 0.0433581 0.0 
44.13 39.48 0.0020888 -3.26636e-05 0.00208904 -0.894 0.0433886 -3.81473e-06 0.0433886 -0.006 
45.03 40.21 0.0020888 -3.24252e-05 0.00208904 -0.888 0.0434248 -1.90736e-06 0.0434248 0.0 
45.93 40.97 0.00208952 -3.24252e-05 0.00208999 -0.888 0.0434592 -1.90736e-06 0.0434592 0.0 
46.82 41.44 0.00208975 -3.2902e-05 0.00208999 -0.894 0.0434935 -1.90736e-06 0.0434935 0.0 
46.29 42.1 0.00208952 -3.26636e-05 0.00208999 -0.894 0.0435069 -3.81473e-06 0.0435069 -0.006 
48.34 45.03 0.0020919 -3.24252e-05 0.00209214 -0.888 0.0437109 -3.81473e-06 0.0437109 -0.006 
49.5 46.97 0.00209333 -3.21867e-05 0.00209357 -0.882 0.043812 -3.81473e-06 0.043812 -0.006 
50.36 46.97 0.00209405 -3.21867e-05 0.00209428 -0.882 0.0438464 -3.81473e-06 0.0438464 -0.006 
51.29 48.11 0.00209452 -3.21867e-05 0.00209476 -0.882 0.0438788 -3.81473e-06 0.0438788 -0.006 
52.19 48.11 0.002095 -3.21867e-05 0.00209524 -0.882 0.0439131 -3.81473e-06 0.0439131 -0.006 
53.1 49.25 0.00209548 -3.21867e-05 0.00209571 -0.882 0.0439436 -3.81473e-06 0.0439436 -0.006 
54.0 49.49 0.00209595 -3.21867e-05 0.00209619 -0.882 0.043978 -3.81473e-06 0.043978 -0.006 
54.88 50.19 0.00209643 -3.21867e-05 0.00209667 -0.876 0.0440104 -3.81473e-06 0.0440104 -0.006 
55.73 50.42 0.00209691 -3.21867e-05 0.00209714 -0.876 0.0440428 -3.81473e-06 0.0440428 -0.006 
56.67 51.14 0.00209738 -3.21867e-05 0.00209762 -0.876 0.0440772 -5.72208e-06 0.0440772 -0.006 
57.57 52.11 0.00209786 -3.21867e-05 0.00209786 -0.876 0.0441134 -5.72208e-06 0.0441134 -0.006 
58.48 52.21 0.00209834 -3.21867e-05 0.00209834 -0.876 0.0441477 -5.72208e-06 0.0441477 -0.006 
59.36 53.35 0.00209881 -3.21867e-05 0.00209881 -0.876 0.0441821 -5.72208e-06 0.0441821 -0.006 
60.26 53.63 0.00209929 -3.21867e-05 0.00209953 -0.876 0.0442164 -5.72208e-06 0.0442164 -0.006 
61.16 54.14 0.00209977 -3.21867e-05 0.00210001 -0.876 0.0442507 -5.72208e-06 0.0442507 -0.006 
61.29 54.24 0.00210001 -3.21867e-05 0.00210001 -0.876 0.0442584 -5.72208e-06 0.0442584 -0.006 
62.97 55.56 0.00210072 -3.21867e-05 0.00210096 -0.876 0.0443137 -5.72208e-06 0.0443137 -0.006 
63.86 56.21 0.00210144 -3.21867e-05 0.00210167 -0.876 0.0443518 -5.72208e-06 0.0443518 -0.006 
64.74 56.74 0.00210191 -3.21867e-05 0.00210215 -0.876 0.0443881 -5.72208e-06 0.0443881 -0.006 
66.05 58.1 0.00210287 -3.21867e-05 0.00210311 -0.876 0.0444605 -5.72208e-06 0.0444605 -0.006 
66.55 58.65 0.00210358 -3.21867e-05 0.00210382 -0.876 0.0444853 -5.72208e-06 0.0444853 -0.006 
67.69 60.93 0.0021062 -3.21867e-05 0.00210644 -0.876 0.0446417 -5.72208e-06 0.0446417 -0.006 
68.32 61.04 0.00210668 -3.21867e-05 0.00210668 -0.876 0.0446684 -5.72208e-06 0.0446684 -0.006 
69.23 61.5 0.00210716 -3.21867e-05 0.0021074 -0.876 0.0447066 -5.72208e-06 0.0447066 -0.006 
70.14 62.09 0.00210764 -3.21867e-05 0.00210787 -0.876 0.0447428 -5.72208e-06 0.0447428 -0.006 
71.02 62.67 0.00210835 -3.21867e-05 0.00210835 -0.876 0.0447791 -5.72208e-06 0.0447791 -0.006 
72.21 64.17 0.0021093 -3.21867e-05 0.00210954 -0.876 0.0448401 -5.72208e-06 0.0448401 -0.006 
73.15 65.42 0.0021105 -3.21867e-05 0.00211073 -0.876 0.0449259 -7.62945e-06 0.0449259 -0.006 
73.82 67.3 0.00211383 -3.21867e-05 0.00211383 -0.87 0.0450938 -7.62945e-06 0.0450938 -0.006 
74.6 67.62 0.00211431 -3.21867e-05 0.00211431 -0.87 0.04513 -7.62945e-06 0.04513 -0.006 
75.5 68.58 0.00211479 -3.21867e-05 0.00211503 -0.87 0.0451643 -5.72208e-06 0.0451643 -0.006 
75.56 68.9 0.00211503 -3.21867e-05 0.00211503 -0.87 0.0451701 -7.62945e-06 0.0451701 -0.006 
77.29 70.22 0.00211646 -3.21867e-05 0.0021167 -0.87 0.0452521 -7.62945e-06 0.0452521 -0.006 
77.66 70.55 0.00211646 -3.21867e-05 0.0021167 -0.87 0.0452673 -7.62945e-06 0.0452673 -0.006 
79.08 70.88 0.00211717 -3.21867e-05 0.00211717 -0.87 0.0453169 -7.62945e-06 0.0453169 -0.006 
79.41 71.22 0.00211717 -3.21867e-05 0.00211741 -0.87 0.0453303 -7.62945e-06 0.0453303 -0.006 
80.65 71.89 0.00211789 -3.21867e-05 0.00211813 -0.87 0.0453703 -7.62945e-06 0.0453703 -0.006 
81.77 72.92 0.00211836 -3.21867e-05 0.0021186 -0.864 0.0454161 -7.62945e-06 0.0454161 -0.006 
82.97 74.66 0.00212003 -3.21867e-05 0.00212027 -0.864 0.0455115 -7.62945e-06 0.0455115 -0.006 
83.55 74.66 0.00212051 -3.21867e-05 0.00212075 -0.864 0.0455382 -7.62945e-06 0.0455382 -0.006 
84.46 75.19 0.00212099 -3.21867e-05 0.00212122 -0.864 0.0455744 -7.62945e-06 0.0455744 -0.006 
85.69 76.11 0.00212218 -3.21867e-05 0.00212242 -0.864 0.0456469 -7.62945e-06 0.0456469 -0.006 
1.0 77.2 0.00212266 -3.21867e-05 0.00212289 -0.864 0.0456717 -7.62945e-06 0.0456717 -0.006 
87.2 77.2 0.00212337 -3.21867e-05 0.00212361 -0.864 0.0457098 -7.62945e-06 0.0457098 -0.006 
88.06 77.93 0.00212409 -3.21867e-05 0.00212432 -0.864 0.0457423 -7.62945e-06 0.0457423 -0.006 
88.94 79.04 0.00212456 -3.21867e-05 0.0021248 -0.864 0.0457766 -7.62945e-06 0.0457766 -0.006 
89.06 79.04 0.0021248 -3.21867e-05 0.00212504 -0.864 0.0457823 -9.5368e-06 0.0457823 -0.012 
90.65 80.93 0.00212575 -3.21867e-05 0.00212599 -0.864 0.0458891 -9.5368e-06 0.0458891 -0.012 
91.6 80.93 0.00212671 -3.21867e-05 0.00212671 -0.864 0.0459502 -9.5368e-06 0.0459502 -0.012 
92.51 82.09 0.00212695 -3.21867e-05 0.00212719 -0.864 0.045996 -9.5368e-06 0.045996 -0.012 
92.78 82.09 0.00212719 -3.21867e-05 0.00212719 -0.864 0.0460112 -9.5368e-06 0.0460112 -0.012 
93.85 83.26 0.00212766 -3.21867e-05 0.00212766 -0.864 0.0460474 -9.5368e-06 0.0460474 -0.012 
95.05 83.57 0.00212814 -3.21867e-05 0.00212838 -0.864 0.0461028 -9.5368e-06 0.0461028 -0.012 
96.24 84.89 0.00212957 -3.21867e-05 0.00212981 -0.864 0.0461791 -9.5368e-06 0.0461791 -0.012 
97.01 86.1 0.00213052 -3.21867e-05 0.00213052 -0.858 0.0462191 -9.5368e-06 0.0462191 -0.012 
97.54 85.69 0.00213124 -3.24252e-05 0.00213148 -0.87 0.046242 -9.5368e-06 0.046242 -0.012 
98.79 86.92 0.00213076 -3.21867e-05 0.002131 -0.858 0.0463011 -9.5368e-06 0.0463011 -0.012 
99.71 87.33 0.002131 -3.21867e-05 0.002131 -0.858 0.0463469 -9.5368e-06 0.0463469 -0.012 
100.6 88.16 0.00213148 -3.21867e-05 0.00213148 -0.858 0.0463908 -9.5368e-06 0.0463908 -0.012 
101.49 88.57 0.00213195 -3.19483e-05 0.00213219 -0.858 0.0464308 -9.5368e-06 0.0464308 -0.012 
101.77 89.41 0.00213219 -3.21867e-05 0.00213219 -0.858 0.0464461 -9.5368e-06 0.0464461 -0.012 
103.16 90.52 0.00213338 -3.21867e-05 0.00213362 -0.858 0.04653 -9.5368e-06 0.04653 -0.012 
104.18 91.12 0.00213434 -3.21867e-05 0.00213434 -0.858 0.0465949 -1.14442e-05 0.0465949 -0.012 
105.01 92.42 0.00213481 -3.19483e-05 0.00213505 -0.852 0.0466349 -9.5368e-06 0.0466349 -0.012 
106.13 94.63 0.0021372 -3.19483e-05 0.00213744 -0.852 0.0467837 -1.14442e-05 0.0467837 -0.012 
106.66 94.63 0.00213768 -3.19483e-05 0.00213791 -0.852 0.0468066 -1.14442e-05 0.0468066 -0.012 
107.76 95.26 0.00213887 -3.19483e-05 0.00213887 -0.852 0.04686 -1.14442e-05 0.04686 -0.012 
108.66 96.03 0.00213934 -3.19483e-05 0.00213958 -0.852 0.0469038 -1.14442e-05 0.0469038 -0.012 
109.28 96.03 0.00213982 -3.19483e-05 0.00214006 -0.852 0.0469306 -1.14442e-05 0.0469306 -0.012 
110.45 97.86 0.00214101 -3.19483e-05 0.00214101 -0.852 0.0469973 -1.14442e-05 0.0469973 -0.012 
110.71 99.73 0.00214387 -3.19483e-05 0.00214387 -0.852 0.0471346 -1.14442e-05 0.0471346 -0.012 
112.18 101.15 0.0021465 -3.19483e-05 0.0021465 -0.852 0.0472586 -1.14442e-05 0.0472586 -0.012 
113.14 102.12 0.00214745 -3.19483e-05 0.00214769 -0.852 0.0473082 -1.14442e-05 0.0473082 -0.012 
113.48 102.6 0.00214769 -3.19483e-05 0.00214793 -0.852 0.0473216 -1.14442e-05 0.0473216 -0.012 
113.96 103.08 0.00214817 -3.19483e-05 0.00214817 -0.852 0.0473368 -1.14442e-05 0.0473368 -0.012 
115.58 104.56 0.00214936 -3.19483e-05 0.0021496 -0.846 0.0474417 -1.14442e-05 0.0474417 -0.012 
116.73 105.55 0.00215031 -3.19483e-05 0.00215031 -0.846 0.0475142 -1.14442e-05 0.0475142 -0.012 
117.62 106.05 0.00215127 -3.19483e-05 0.0021515 -0.846 0.0475581 -1.14442e-05 0.0475581 -0.012 
118.51 106.05 0.00215198 -3.19483e-05 0.00215222 -0.846 0.0475981 -1.14442e-05 0.0475981 -0.012 
118.95 106.6 0.00215246 -3.19483e-05 0.0021527 -0.846 0.0476153 -1.33515e-05 0.0476153 -0.012 
120.06 107.11 0.0021527 -3.19483e-05 0.0021527 -0.846 0.0476687 -1.33515e-05 0.0476687 -0.012 
121.2 108.64 0.00215389 -3.19483e-05 0.00215413 -0.846 0.0477469 -1.33515e-05 0.0477469 -0.012 
122.01 109.47 0.0021546 -3.19483e-05 0.00215484 -0.846 0.047785 -1.33515e-05 0.047785 -0.012 
123.0 110.19 0.00215556 -3.19483e-05 0.0021558 -0.846 0.0478384 -1.33515e-05 0.0478384 -0.012 
123.7 110.19 0.00215603 -3.19483e-05 0.00215603 -0.846 0.0478709 -1.33515e-05 0.0478709 -0.012 
124.79 111.24 0.0021577 -3.19483e-05 0.0021577 -0.846 0.0479414 -1.33515e-05 0.0479414 -0.012 
125.68 112.83 0.00215985 -3.19483e-05 0.00215985 -0.846 0.0479929 -1.33515e-05 0.0479929 -0.012 
126.59 112.83 0.00216247 -3.19483e-05 0.00216247 -0.846 0.0480444 -1.33515e-05 0.0480444 -0.012 
127.3 113.37 0.00216247 -3.19483e-05 0.00216271 -0.846 0.048075 -1.33515e-05 0.048075 -0.012 
128.09 113.9 0.00216295 -3.19483e-05 0.00216319 -0.846 0.0481131 -1.33515e-05 0.0481131 -0.012 
129.26 115.53 0.00216533 -3.19483e-05 0.00216557 -0.84 0.0482256 -1.33515e-05 0.0482256 -0.012 
130.16 117.18 0.0021732 -3.21867e-05 0.0021732 -0.846 0.0482733 -1.33515e-05 0.0482733 -0.012 
131.06 117.18 0.00216867 -3.19483e-05 0.00216867 -0.84 0.0483267 -1.33515e-05 0.0483267 -0.012 
131.66 117.74 0.00216939 -3.19483e-05 0.00216962 -0.84 0.0483515 -1.33515e-05 0.0483515 -0.012 
131.9 117.74 0.00217225 -3.21867e-05 0.00217248 -0.846 0.048363 -1.33515e-05 0.048363 -0.018 
133.22 120.05 0.00217749 -3.21867e-05 0.00217773 -0.84 0.0484316 -1.33515e-05 0.0484316 -0.018 
134.06 120.05 0.00218083 -3.21867e-05 0.00218083 -0.846 0.048466 -1.33515e-05 0.048466 -0.012 
134.69 119.76 0.00217845 -3.21867e-05 0.00217868 -0.84 0.0484984 -1.33515e-05 0.0484984 -0.012 
136.44 119.42 0.00217749 -3.21867e-05 0.00217749 -0.84 0.0485461 -1.33515e-05 0.0485461 -0.018 
136.84 119.99 0.00217535 -3.19483e-05 0.00217558 -0.84 0.0485632 -1.33515e-05 0.0485632 -0.018 
138.13 119.42 0.00222398 -3.33788e-05 0.00222398 -0.852 0.0485785 -1.33515e-05 0.0485785 -0.012 
139.13 120.62 0.00226451 -3.43325e-05 0.00226499 -0.864 0.0485804 -1.33515e-05 0.0485804 -0.018 
140.03 121.19 0.00231697 -3.55246e-05 0.00231721 -0.876 0.0485747 -1.33515e-05 0.0485747 -0.018 
140.94 121.76 0.00231268 -3.55246e-05 0.00231315 -0.876 0.0485919 -1.33515e-05 0.0485919 -0.012 
141.84 122.34 0.00236465 -3.67167e-05 0.00236489 -0.888 0.0485957 -1.33515e-05 0.0485957 -0.018 
142.71 122.92 0.00249983 -4.0293e-05 0.00250031 -0.918 0.0485022 -1.33515e-05 0.0485022 -0.018 
143.61 123.5 0.00253297 -4.10082e-05 0.00253345 -0.93 0.0485175 -1.33515e-05 0.0485175 -0.012 
144.52 122.92 0.00252487 -4.10082e-05 0.00252534 -0.924 0.0485671 -1.33515e-05 0.0485671 -0.012 
145.41 124.09 0.00257207 -4.22003e-05 0.00257231 -0.936 0.0485613 -1.33515e-05 0.0485613 -0.012 
146.3 124.68 0.00259449 -4.26772e-05 0.00259496 -0.936 0.0485766 -1.33515e-05 0.0485766 -0.018 
147.2 125.27 0.00262238 -4.33924e-05 0.00262262 -0.942 0.048588 -1.33515e-05 0.048588 -0.018 
148.1 125.27 0.00262095 -4.33924e-05 0.00262119 -0.942 0.0486262 -1.33515e-05 0.0486262 -0.018 
148.99 126.46 0.00264265 -4.38693e-05 0.00264312 -0.948 0.0486472 -1.33515e-05 0.0486472 -0.018 
149.88 127.06 0.00268842 -4.50613e-05 0.00268866 -0.954 0.0486434 -1.33515e-05 0.0486434 -0.018 
150.78 127.06 0.00273587 -4.6015e-05 0.00273611 -0.966 0.0486376 -1.33515e-05 0.0486376 -0.018 
151.27 127.06 0.00278808 -4.76839e-05 0.00278832 -0.978 0.04863 -1.33515e-05 0.04863 -0.018 
152.56 129.49 0.0029154 -5.07834e-05 0.00291587 -0.996 0.0486224 -1.33515e-05 0.0486224 -0.018 
153.47 130.11 0.00296833 -5.22139e-05 0.0029688 -1.002 0.0486243 -1.33515e-05 0.0486243 -0.018 
153.93 130.11 0.00297381 -5.22139e-05 0.00297429 -1.008 0.0486376 -1.33515e-05 0.0486376 -0.018 
155.27 131.97 0.00321342 -5.84128e-05 0.0032139 -1.038 0.0485499 -1.33515e-05 0.0485499 -0.018 
156.18 131.97 0.00310661 -5.57902e-05 0.00310709 -1.026 0.0485098 -1.33515e-05 0.0485098 -0.018 
157.06 130.79 0.00309397 -5.55518e-05 0.00309445 -1.026 0.0485117 -1.33515e-05 0.0485117 -0.018 
158.24 132.59 0.00318195 -5.76975e-05 0.00318243 -1.038 0.0485346 -1.33515e-05 0.0485346 -0.018 
158.86 132.59 0.00322296 -5.86512e-05 0.00322343 -1.038 0.0485232 -1.33515e-05 0.0485232 -0.018 
159.75 133.22 0.00323345 -5.88896e-05 0.00323392 -1.044 0.0485346 -1.33515e-05 0.0485346 -0.018 
160.65 132.97 0.0032437 -5.9128e-05 0.00324418 -1.044 0.0485499 -1.33515e-05 0.0485499 -0.018 
161.63 135.84 0.00337602 -6.24661e-05 0.0033765 -1.056 0.0485919 -1.33515e-05 0.0485919 -0.018 
162.43 137.13 0.00339939 -6.31814e-05 0.0034001 -1.062 0.0486033 -1.33515e-05 0.0486033 -0.018 
163.34 136.48 0.00344445 -6.43735e-05 0.00344492 -1.068 0.048588 -1.33515e-05 0.048588 -0.018 
164.23 137.78 0.00346161 -6.46119e-05 0.00346209 -1.068 0.0485976 -1.33515e-05 0.0485976 -0.018 
164.32 137.78 0.00346209 -6.46119e-05 0.00346281 -1.068 0.0486014 -1.33515e-05 0.0486014 -0.018 
166.02 138.43 0.00351931 -6.60424e-05 0.00352003 -1.074 0.0486357 -1.33515e-05 0.0486357 -0.018 
166.91 139.75 0.00355507 -6.69961e-05 0.00355555 -1.08 0.0486414 -1.33515e-05 0.0486414 -0.018 
167.45 139.09 0.00357081 -6.74729e-05 0.00357153 -1.08 0.0486414 -1.33515e-05 0.0486414 -0.018 
168.71 140.41 0.00361992 -6.8665e-05 0.0036204 -1.086 0.0486376 -1.33515e-05 0.0486376 -0.018 
169.62 139.75 0.00362207 -6.8665e-05 0.00362279 -1.086 0.0486262 -1.33515e-05 0.0486262 -0.018 
170.5 141.08 0.00362827 -6.89034e-05 0.00362898 -1.086 0.0486281 -1.33515e-05 0.0486281 -0.018 
171.1 142.42 0.00370337 -7.08108e-05 0.00370409 -1.092 0.048651 -1.33515e-05 0.048651 -0.018 
171.88 142.76 0.00375225 -7.20029e-05 0.00375296 -1.098 0.048691 -1.33515e-05 0.048691 -0.018 
173.06 143.78 0.00377418 -7.27181e-05 0.0037749 -1.098 0.0487044 -1.33515e-05 0.0487044 -0.018 
174.09 143.78 0.00379087 -7.29566e-05 0.00379159 -1.098 0.0487158 -1.33515e-05 0.0487158 -0.018 
174.99 144.46 0.0038202 -7.36718e-05 0.00382091 -1.104 0.0487101 -1.33515e-05 0.0487101 -0.018 
175.89 145.15 0.00384142 -7.43871e-05 0.00384213 -1.104 0.0487463 -1.33515e-05 0.0487463 -0.018 
176.78 145.15 0.00384571 -7.43871e-05 0.00384642 -1.104 0.0487578 -1.33515e-05 0.0487578 -0.018 
177.68 145.84 0.00385357 -7.43871e-05 0.00385429 -1.104 0.0487711 -1.33515e-05 0.0487711 -0.018 
178.58 145.84 0.00385953 -7.46255e-05 0.00386025 -1.104 0.0487826 -1.33515e-05 0.0487826 -0.018 
179.48 145.84 0.00386001 -7.46255e-05 0.00386073 -1.104 0.0487978 -1.33515e-05 0.0487978 -0.018 
180.37 145.84 0.0038674 -7.48639e-05 0.00386788 -1.104 0.0488112 -1.33515e-05 0.0488112 -0.018 
181.26 145.84 0.00387193 -7.48639e-05 0.00387265 -1.104 0.0488207 -1.33515e-05 0.0488207 -0.018 
182.17 147.22 0.00387646 -7.51023e-05 0.00387718 -1.11 0.048836 -1.52589e-05 0.048836 -0.018 
183.07 146.53 0.00388004 -7.51023e-05 0.00388075 -1.11 0.0488493 -1.33515e-05 0.0488493 -0.018 
184.16 150.04 0.00391176 -7.6056e-05 0.00391224 -1.11 0.0489638 -1.33515e-05 0.0489638 -0.018 
184.85 149.76 0.00391272 -7.6056e-05 0.00391343 -1.11 0.0489905 -1.52589e-05 0.0489905 -0.018 
184.36 150.04 0.00391486 -7.6056e-05 0.00391558 -1.11 0.0490267 -1.52589e-05 0.0490267 -0.018 
184.39 150.04 0.00391486 -7.6056e-05 0.00391558 -1.11 0.0490267 -1.52589e-05 0.0490267 -0.018 
187.53 151.54 0.00392225 -7.6056e-05 0.00392273 -1.11 0.0490916 -1.52589e-05 0.0490916 -0.018 
188.44 151.54 0.00392368 -7.6056e-05 0.0039244 -1.11 0.0491049 -1.52589e-05 0.0491049 -0.018 
189.34 152.98 0.00392345 -7.6056e-05 0.00392416 -1.11 0.0491221 -1.52589e-05 0.0491221 -0.018 
190.23 152.98 0.00392273 -7.6056e-05 0.00392321 -1.11 0.0491374 -1.52589e-05 0.0491374 -0.018 
190.63 153.71 0.00392321 -7.6056e-05 0.00392392 -1.11 0.049145 -1.52589e-05 0.049145 -0.018 
190.84 153.71 0.00392321 -7.6056e-05 0.00392392 -1.11 0.0491488 -1.52589e-05 0.0491488 -0.018 
192.91 152.98 0.00392488 -7.6056e-05 0.00392559 -1.11 0.049185 -1.52589e-05 0.049185 -0.018 
193.81 152.98 0.00392535 -7.6056e-05 0.00392607 -1.11 0.0492098 -1.52589e-05 0.0492098 -0.018 
